tor1(deg),E(kJ/mol)
0.000000,0.000000
-0.001848,0.002069
-0.006358,0.001933
-0.011322,0.004790
-0.017558,0.007755
-0.025025,0.012268
-0.035092,0.018228
-0.047844,0.027491
-0.057544,0.039939
-0.066436,0.048037
-0.076987,0.057935
-0.086773,0.069192
-0.097536,0.079686
-0.109350,0.090666
-0.121296,0.098911
-0.130594,0.104700
-0.137507,0.108617
-0.142882,0.111218
-0.145988,0.112035
-0.149170,0.110158
-0.152647,0.109520
-0.155159,0.107911
-0.157582,0.104561
-0.163282,0.099848
-0.169761,0.092065
-0.175964,0.085621
-0.180631,0.078957
-0.183412,0.071659
-0.184148,0.065128
-0.184623,0.058795
-0.182276,0.054991
-0.179683,0.050616
-0.182379,0.045744
-0.182124,0.043042
-0.178169,0.039752
-0.172342,0.034416
-0.166831,0.028888
-0.163562,0.024390
-0.158187,0.017710
-0.153511,0.011254
-0.150859,0.004320
-0.150461,0.002827
-0.148813,0.003360
-0.144035,0.004542
-0.139734,0.007748
-0.135535,0.011378
-0.133158,0.019464
-0.128423,0.027246
-0.125336,0.037209
-0.119706,0.045665
-0.114651,0.053855
-0.111965,0.062318
-0.109549,0.068422
-0.109869,0.077104
-0.111242,0.084201
-0.113126,0.089163
-0.118616,0.092548
-0.123179,0.095182
-0.126422,0.096416
-0.130115,0.097670
-0.132479,0.098521
-0.133477,0.100471
-0.136333,0.102716
-0.139020,0.106510
-0.137703,0.108419
-0.136797,0.111309
-0.139424,0.112683
-0.141584,0.112184
-0.146939,0.113304
-0.149843,0.111394
-0.155184,0.107018
-0.161410,0.102564
-0.164686,0.098325
-0.165462,0.094567
-0.168566,0.093058
-0.173785,0.094238
-0.178202,0.093121
-0.181090,0.091466
-0.183154,0.088102
-0.187633,0.086681
-0.189980,0.088073
-0.191735,0.089167
-0.194658,0.092409
-0.198195,0.097302
-0.202575,0.100420
-0.207509,0.104684
-0.208972,0.106743
-0.211874,0.109042
-0.215631,0.111812
-0.217961,0.112655
-0.219267,0.110096
-0.221791,0.103492
-0.227844,0.100560
-0.231715,0.091748
-0.235632,0.083281
-0.239554,0.076270
-0.241898,0.074240
-0.241857,0.067665
-0.241071,0.064767
-0.239191,0.060936
-0.235455,0.059315
-0.230742,0.059425
-0.224655,0.061365
-0.220814,0.064624
-0.218835,0.070280
-0.217725,0.074179
-0.218503,0.080089
-0.218616,0.083681
-0.219666,0.088494
-0.222349,0.091003
-0.227628,0.092003
-0.230565,0.089805
-0.237053,0.089375
-0.241859,0.091618
-0.249779,0.096346
-0.257127,0.096780
-0.265896,0.097743
-0.275266,0.101264
-0.282430,0.103459
-0.286369,0.102282
-0.287729,0.102820
-0.290129,0.105078
-0.288880,0.108098
-0.287184,0.112851
-0.285047,0.115996
-0.284376,0.116043
-0.286545,0.115304
-0.288416,0.110922
-0.290251,0.106112
-0.292536,0.101220
-0.290986,0.097479
-0.293045,0.094775
-0.295564,0.091413
-0.294671,0.087339
-0.291778,0.086956
-0.292771,0.086316
-0.291316,0.083777
-0.291722,0.083294
-0.291069,0.081250
-0.291545,0.082326
-0.292059,0.081843
-0.290477,0.082405
-0.291694,0.082521
-0.292390,0.083515
-0.291767,0.085271
-0.291216,0.087809
-0.290275,0.090135
-0.288590,0.092437
-0.286985,0.098005
-0.287299,0.102543
-0.287227,0.105491
-0.282634,0.106152
-0.281671,0.108142
-0.282672,0.110067
-0.284767,0.111069
-0.288340,0.111950
-0.291620,0.112167
-0.295715,0.112043
-0.297924,0.107347
-0.299454,0.103208
-0.300315,0.101870
-0.302716,0.102126
-0.305538,0.102710
-0.309279,0.100470
-0.314219,0.097450
-0.317078,0.097979
-0.318770,0.104263
-0.320112,0.107913
-0.323860,0.111964
-0.326201,0.114730
-0.326689,0.116510
-0.327110,0.117913
-0.326873,0.120327
-0.327022,0.122088
-0.329292,0.124061
-0.329737,0.123749
-0.327385,0.123085
-0.325035,0.122722
-0.321903,0.120555
-0.317771,0.117428
-0.312319,0.113225
-0.308440,0.111398
-0.304300,0.110790
-0.299694,0.106456
-0.295172,0.102209
-0.292313,0.099177
-0.288209,0.096956
-0.281768,0.092657
-0.274666,0.088940
-0.270373,0.085057
-0.268555,0.081263
-0.267631,0.080129
-0.264263,0.075398
-0.260004,0.070287
-0.256499,0.068342
-0.254051,0.065719
-0.251692,0.064472
-0.248498,0.067239
-0.242413,0.068238
-0.236091,0.073728
-0.233033,0.079545
-0.229657,0.084847
-0.224304,0.089374
-0.216332,0.091265
-0.213163,0.094116
-0.212079,0.096654
-0.209414,0.099324
-0.208337,0.102207
-0.207020,0.108548
-0.202974,0.109498
-0.198584,0.109146
-0.190867,0.107168
-0.186560,0.105875
-0.185683,0.105275
-0.185478,0.102889
-0.185353,0.098060
-0.186458,0.096579
-0.190085,0.094976
-0.194659,0.092811
-0.197534,0.091752
-0.199190,0.093347
-0.198723,0.095947
-0.196426,0.097789
-0.197449,0.100003
-0.200951,0.102114
-0.203127,0.103079
-0.203370,0.102145
-0.206621,0.102849
-0.211486,0.103574
-0.216069,0.104819
-0.223304,0.102797
-0.230849,0.100242
-0.239352,0.099269
-0.247719,0.096662
-0.257332,0.091674
-0.265863,0.084744
-0.271847,0.077646
-0.278394,0.073500
-0.284697,0.065212
-0.289105,0.061945
-0.292983,0.056742
-0.291913,0.053884
-0.291696,0.055220
-0.292530,0.056732
-0.288080,0.057889
-0.286003,0.061051
-0.287122,0.064954
-0.287993,0.069439
-0.289115,0.071539
-0.293428,0.073047
-0.296833,0.074025
-0.297484,0.075656
-0.295386,0.075680
-0.294373,0.077406
-0.297892,0.081927
-0.298513,0.084502
-0.294609,0.086444
-0.293260,0.086908
-0.292058,0.086969
-0.289755,0.085289
-0.288104,0.083919
-0.287440,0.081764
-0.287187,0.078825
-0.285622,0.075252
-0.286290,0.074099
-0.288102,0.071192
-0.289228,0.067772
-0.291780,0.061932
-0.292414,0.056865
-0.292086,0.053446
-0.289300,0.048676
-0.289393,0.045712
-0.290800,0.042132
-0.290286,0.039581
-0.288080,0.039640
-0.286010,0.043015
-0.285311,0.045861
-0.287875,0.049255
-0.288795,0.053360
-0.292476,0.061536
-0.293283,0.071364
-0.295806,0.078375
-0.297217,0.085699
-0.294498,0.089625
-0.291458,0.094230
-0.292832,0.100565
-0.290583,0.104388
-0.288007,0.106947
-0.284598,0.109636
-0.286915,0.113311
-0.284683,0.115896
-0.280319,0.115415
-0.276975,0.113471
-0.272793,0.114036
-0.266619,0.113580
-0.262345,0.113487
-0.260989,0.110203
-0.259329,0.107503
-0.258405,0.104983
-0.260097,0.105208
-0.264380,0.104666
-0.267179,0.103131
-0.269706,0.102200
-0.274761,0.102326
-0.281756,0.098775
-0.290053,0.093723
-0.295105,0.086895
-0.305079,0.082216
-0.312291,0.080855
-0.319524,0.079868
-0.323359,0.079249
-0.326241,0.079324
-0.327288,0.081556
-0.328179,0.084100
-0.328711,0.087216
-0.328595,0.088525
-0.327540,0.091802
-0.329705,0.092207
-0.327824,0.090482
-0.326132,0.089354
-0.327337,0.087637
-0.327090,0.087264
-0.325121,0.086241
-0.324178,0.088169
-0.323351,0.087475
-0.320469,0.090047
-0.315300,0.092555
-0.311680,0.096568
-0.308472,0.099212
-0.305471,0.102264
-0.305075,0.103729
-0.298740,0.101672
-0.290436,0.097370
-0.283902,0.094169
-0.280932,0.091463
-0.275336,0.088745
-0.269277,0.086213
-0.265377,0.083088
-0.263132,0.079725
-0.261772,0.076368
-0.262264,0.072940
-0.262683,0.068564
-0.263283,0.065949
-0.267478,0.061378
-0.268820,0.057894
-0.271216,0.054782
-0.275827,0.053678
-0.281136,0.048800
-0.286281,0.044585
-0.293432,0.044085
-0.303150,0.047039
-0.311710,0.047857
-0.317909,0.046292
-0.324388,0.045684
-0.327654,0.044879
-0.330325,0.040863
-0.334137,0.039518
-0.338176,0.039955
-0.339684,0.041750
-0.337058,0.043051
-0.335698,0.042253
-0.336279,0.041392
-0.337463,0.039894
-0.339464,0.036150
-0.337963,0.033963
-0.332220,0.034706
-0.326004,0.037610
-0.316040,0.040074
-0.309461,0.043907
-0.302376,0.046045
-0.296995,0.046756
-0.289368,0.044478
-0.282097,0.043140
-0.276595,0.044493
-0.272839,0.042804
-0.271557,0.040254
-0.270177,0.038980
-0.269705,0.037705
-0.269305,0.036560
-0.268744,0.037261
-0.266622,0.037146
-0.263785,0.038171
-0.259795,0.039701
-0.257414,0.041632
-0.253385,0.043752
-0.248648,0.046075
-0.246869,0.048645
-0.242935,0.053000
-0.242145,0.056786
-0.241378,0.060146
-0.240884,0.065181
-0.241036,0.069200
-0.241618,0.073971
-0.241276,0.077941
-0.239941,0.080496
-0.240674,0.083614
-0.242926,0.086637
-0.244534,0.088435
-0.247952,0.089784
-0.253049,0.089580
-0.255874,0.091113
-0.262512,0.095870
-0.269505,0.101052
-0.274873,0.104886
-0.278670,0.106582
-0.279075,0.107809
-0.280716,0.110823
-0.283099,0.111492
-0.283191,0.111567
-0.283894,0.111538
-0.281197,0.111176
-0.276675,0.110057
-0.270138,0.108962
-0.266169,0.108813
-0.260404,0.107051
-0.255261,0.102946
-0.251661,0.100777
-0.248359,0.095543
-0.242910,0.092385
-0.241222,0.089817
-0.240574,0.086077
-0.243099,0.084586
-0.244763,0.082949
-0.247763,0.078515
-0.250317,0.077983
-0.253913,0.076124
-0.254425,0.074870
-0.253555,0.071476
-0.253933,0.070039
-0.255111,0.070851
-0.253472,0.071231
-0.253441,0.073957
-0.255456,0.079367
-0.256018,0.086678
-0.255145,0.093544
-0.251419,0.098362
-0.246474,0.106924
-0.241851,0.115701
-0.236569,0.120816
-0.231506,0.124074
-0.227285,0.129300
-0.224280,0.130758
-0.224821,0.131887
-0.224865,0.133814
-0.224963,0.133266
-0.225953,0.129378
-0.228480,0.124959
-0.231031,0.118737
-0.235975,0.113279
-0.238903,0.107040
-0.242583,0.099378
-0.247961,0.092192
-0.252201,0.088755
-0.257334,0.086905
-0.260783,0.085278
-0.265923,0.082741
-0.271909,0.081914
-0.275859,0.084792
-0.281747,0.087330
-0.287303,0.089752
-0.291776,0.094689
-0.294352,0.100220
-0.296379,0.102788
-0.299125,0.104864
-0.303349,0.106594
-0.307361,0.107825
-0.306757,0.108227
-0.306900,0.106539
-0.304502,0.103132
-0.301150,0.101008
-0.301311,0.101945
-0.297870,0.102648
-0.292827,0.102583
-0.289717,0.104072
-0.284894,0.104769
-0.281762,0.107911
-0.279657,0.107949
-0.276961,0.104619
-0.273933,0.104231
-0.271804,0.102620
-0.267746,0.101437
-0.265131,0.099825
-0.264693,0.102310
-0.266824,0.105380
-0.268092,0.110777
-0.265786,0.114511
-0.264711,0.117609
-0.265889,0.123423
-0.267511,0.129152
-0.266449,0.133766
-0.265523,0.138359
-0.265134,0.143165
-0.265030,0.150815
-0.268219,0.156100
-0.271998,0.162011
-0.273300,0.161500
-0.272882,0.160460
-0.274544,0.161223
-0.272595,0.160163
-0.273507,0.158800
-0.270695,0.156186
-0.267001,0.155822
-0.264432,0.151982
-0.260122,0.147283
-0.257420,0.145976
-0.254415,0.143862
-0.254862,0.146544
-0.253446,0.144599
-0.254394,0.139997
-0.255953,0.137624
-0.249666,0.131524
-0.248850,0.126448
-0.248328,0.121168
-0.249679,0.117936
-0.253260,0.113501
-0.256956,0.110125
-0.260176,0.105949
-0.264388,0.100162
-0.265805,0.097025
-0.267608,0.095891
-0.272298,0.097783
-0.278508,0.101276
-0.282723,0.104194
-0.286793,0.107173
-0.289736,0.108463
-0.292905,0.110161
-0.294036,0.112803
-0.294904,0.113788
-0.293213,0.113522
-0.289773,0.112235
-0.288831,0.111385
-0.285436,0.109073
-0.280867,0.108068
-0.274952,0.107739
-0.267661,0.109749
-0.261056,0.109212
-0.255148,0.109367
-0.248386,0.108570
-0.240952,0.109700
-0.233812,0.109692
-0.226683,0.109329
-0.217937,0.104950
-0.209195,0.103456
-0.199635,0.102573
-0.192379,0.100231
-0.188534,0.095966
-0.184717,0.095459
-0.181320,0.095302
-0.171929,0.092403
-0.162462,0.091705
-0.154919,0.093994
-0.151511,0.098585
-0.147752,0.100503
-0.144574,0.100973
-0.141542,0.102375
-0.142531,0.105201
-0.147577,0.110437
-0.153984,0.115475
-0.161581,0.117464
-0.169261,0.118668
-0.176988,0.118910
-0.184729,0.116844
-0.192431,0.115672
-0.201963,0.114519
-0.209184,0.115347
-0.218631,0.121798
-0.227991,0.128588
-0.235537,0.133348
-0.241409,0.140323
-0.245862,0.143882
-0.248147,0.144821
-0.250221,0.146585
-0.255097,0.147338
-0.259451,0.146059
-0.263417,0.143816
-0.270287,0.144319
-0.273686,0.144590
-0.278224,0.142555
-0.281925,0.141112
-0.287521,0.137320
-0.288517,0.133194
-0.287927,0.127564
-0.285855,0.125581
-0.283160,0.122255
-0.280834,0.120136
-0.273343,0.113003
-0.265836,0.109984
-0.259071,0.103906
-0.250554,0.097867
-0.244686,0.094042
-0.240203,0.090670
-0.236359,0.090155
-0.227707,0.092443
-0.220764,0.095684
-0.215544,0.099684
-0.210351,0.102480
-0.203066,0.101228
-0.196145,0.097064
-0.193644,0.093159
-0.194821,0.091328
-0.197978,0.088826
-0.202529,0.083549
-0.206631,0.080225
-0.214099,0.077621
-0.222035,0.073435
-0.227142,0.071833
-0.231718,0.072492
-0.236317,0.074128
-0.242704,0.077379
-0.252079,0.083675
-0.260523,0.089502
-0.271269,0.096874
-0.281276,0.102767
-0.288636,0.107391
-0.294185,0.110304
-0.300552,0.113373
-0.305422,0.115899
-0.313114,0.119294
-0.319521,0.122676
-0.325540,0.123824
-0.328555,0.125764
-0.330636,0.127662
-0.330639,0.125695
-0.332319,0.123114
-0.334851,0.118889
-0.336570,0.116958
-0.337976,0.113071
-0.338653,0.108678
-0.340219,0.107833
-0.338961,0.105791
-0.339816,0.103459
-0.336264,0.099529
-0.333281,0.096098
-0.329193,0.097634
-0.322501,0.098421
-0.316148,0.099195
-0.308712,0.101500
-0.299282,0.102051
-0.291174,0.101022
-0.287110,0.101602
-0.286027,0.101387
-0.283720,0.096872
-0.283725,0.092860
-0.284169,0.088726
-0.286292,0.085986
-0.285235,0.083056
-0.284499,0.082616
-0.282057,0.081283
-0.280607,0.083085
-0.278621,0.083605
-0.274778,0.083448
-0.270148,0.082640
-0.268200,0.083104
-0.266351,0.084345
-0.265908,0.084305
-0.266954,0.085613
-0.270973,0.085450
-0.275123,0.083756
-0.279889,0.081036
-0.285354,0.079239
-0.287766,0.078227
-0.292004,0.081220
-0.292062,0.084532
-0.292403,0.088481
-0.292780,0.093066
-0.294697,0.095656
-0.293048,0.097269
-0.290968,0.098992
-0.285848,0.099671
-0.283179,0.101788
-0.279980,0.104407
-0.276542,0.105758
-0.273838,0.109332
-0.272389,0.115692
-0.269261,0.119481
-0.267631,0.122921
-0.266981,0.128399
-0.268261,0.133414
-0.270489,0.137332
-0.273767,0.139112
-0.283339,0.141784
-0.292247,0.142369
-0.303983,0.139732
-0.314004,0.136402
-0.323259,0.128723
-0.332349,0.120879
-0.343166,0.113662
-0.350301,0.106104
-0.357773,0.099784
-0.362241,0.093614
-0.366666,0.087517
-0.370279,0.080908
-0.375111,0.075124
-0.380140,0.068855
-0.384447,0.060249
-0.387591,0.053875
-0.390435,0.049330
-0.392714,0.044063
-0.388372,0.038378
-0.382679,0.033586
-0.374346,0.032931
-0.365799,0.033324
-0.356742,0.034482
-0.347429,0.034243
-0.338070,0.036417
-0.330150,0.040354
-0.319985,0.042291
-0.309269,0.048407
-0.300864,0.055780
-0.294229,0.063865
-0.287611,0.073131
-0.283357,0.077503
-0.280908,0.084454
-0.275403,0.089738
-0.269604,0.092227
-0.265368,0.093998
-0.260180,0.098977
-0.251779,0.103267
-0.246557,0.110744
-0.243846,0.115302
-0.243200,0.123043
-0.243292,0.129276
-0.244840,0.134752
-0.243459,0.136146
-0.241813,0.138066
-0.239679,0.142011
-0.235779,0.143658
-0.234731,0.144374
-0.232873,0.144947
-0.233055,0.147291
-0.233877,0.147073
-0.235722,0.144082
-0.238652,0.142181
-0.241591,0.143678
-0.243284,0.143309
-0.244538,0.141893
-0.244193,0.142229
-0.243956,0.140891
-0.241656,0.138759
-0.241855,0.137802
-0.242244,0.135582
-0.245391,0.132859
-0.248186,0.130437
-0.253656,0.128541
-0.257236,0.128179
-0.261765,0.127864
-0.266545,0.130888
-0.272104,0.134104
-0.275666,0.135367
-0.280613,0.137356
-0.285848,0.136952
-0.290979,0.137008
-0.297327,0.138624
-0.302354,0.139673
-0.308120,0.138498
-0.315903,0.135608
-0.321340,0.129624
-0.326003,0.122883
-0.328520,0.118407
-0.330018,0.116355
-0.336448,0.113262
-0.342232,0.109435
-0.346961,0.108674
-0.352204,0.111125
-0.357179,0.111449
-0.361853,0.108581
-0.366464,0.112638
-0.371287,0.119864
-0.372970,0.125800
-0.375145,0.130864
-0.377593,0.136442
-0.380069,0.143550
-0.383351,0.149776
-0.387278,0.154124
-0.389170,0.157853
-0.392268,0.159508
-0.396219,0.161809
-0.400093,0.161178
-0.401810,0.160850
-0.403083,0.157673
-0.401059,0.154626
-0.399858,0.150467
-0.393840,0.147992
-0.387047,0.147622
-0.380566,0.146513
-0.375101,0.146013
-0.366875,0.143952
-0.359537,0.140518
-0.354573,0.139166
-0.348678,0.134493
-0.343105,0.129422
-0.336764,0.123488
-0.329265,0.114800
-0.324387,0.107801
-0.320973,0.104239
-0.317036,0.100741
-0.313990,0.096332
-0.308382,0.090015
-0.303926,0.085757
-0.301974,0.082006
-0.298594,0.076822
-0.299184,0.073129
-0.299033,0.068769
-0.300428,0.067898
-0.299739,0.069078
-0.298510,0.071607
-0.296643,0.079085
-0.298227,0.087784
-0.303052,0.099525
-0.307785,0.107334
-0.309796,0.113742
-0.312380,0.115951
-0.316540,0.117962
-0.320967,0.120444
-0.322225,0.123466
-0.320870,0.128477
-0.318493,0.132826
-0.317433,0.138710
-0.313908,0.142480
-0.312071,0.146954
-0.308841,0.151330
-0.307608,0.156244
-0.308312,0.159720
-0.309952,0.160119
-0.309128,0.157801
-0.307310,0.156071
-0.305780,0.152955
-0.305635,0.149610
-0.306859,0.147961
-0.305399,0.145218
-0.305090,0.140499
-0.302725,0.138740
-0.300576,0.137109
-0.298704,0.131169
-0.298361,0.127640
-0.300492,0.122056
-0.302542,0.118957
-0.306204,0.114725
-0.307566,0.109844
-0.312636,0.105451
-0.313835,0.102170
-0.316111,0.098961
-0.315042,0.099215
-0.315009,0.099505
-0.315412,0.098161
-0.313204,0.097794
-0.312256,0.098198
-0.310480,0.099040
-0.309230,0.101549
-0.306497,0.103140
-0.306446,0.107683
-0.308055,0.113910
-0.312296,0.118628
-0.318519,0.124236
-0.323988,0.128855
-0.331491,0.133299
-0.339789,0.136639
-0.347759,0.138164
-0.354899,0.142761
-0.361557,0.148374
-0.366635,0.150131
-0.373421,0.152104
-0.377419,0.151564
-0.381862,0.150260
-0.383860,0.149910
-0.386019,0.147754
-0.385430,0.143221
-0.386107,0.142855
-0.387333,0.142688
-0.386235,0.141777
-0.383210,0.137386
-0.378191,0.133838
-0.372004,0.127587
-0.365518,0.121563
-0.362494,0.119656
-0.354626,0.115559
-0.346788,0.111378
-0.337327,0.109726
-0.328218,0.106393
-0.319682,0.102855
-0.312592,0.101762
-0.306967,0.103661
-0.301732,0.108521
-0.295678,0.111539
-0.290157,0.114266
-0.286638,0.117972
-0.285214,0.120235
-0.284618,0.121345
-0.284041,0.118948
-0.281736,0.116918
-0.276715,0.116347
-0.273489,0.115942
-0.269332,0.115856
-0.262539,0.113527
-0.259373,0.114268
-0.257149,0.116842
-0.252818,0.119925
-0.247141,0.122903
-0.243126,0.125876
-0.241736,0.130150
-0.240724,0.134230
-0.240446,0.138105
-0.239049,0.141594
-0.238245,0.142037
-0.238965,0.145377
-0.239430,0.150972
-0.241125,0.156901
-0.241192,0.159945
-0.242640,0.162668
-0.244125,0.164424
-0.246282,0.166924
-0.247407,0.165725
-0.252291,0.164778
-0.259218,0.164335
-0.263007,0.163077
-0.264340,0.161745
-0.268932,0.162290
-0.275583,0.160187
-0.281407,0.158698
-0.288296,0.156073
-0.295334,0.150853
-0.302357,0.145244
-0.306895,0.139712
-0.312747,0.136322
-0.315566,0.132803
-0.317878,0.129416
-0.320156,0.128342
-0.323402,0.128271
-0.323971,0.125967
-0.324403,0.124119
-0.324225,0.125603
-0.321786,0.130670
-0.320610,0.134491
-0.318695,0.137268
-0.317280,0.139430
-0.315457,0.143036
-0.313488,0.145704
-0.312969,0.147570
-0.310715,0.148005
-0.308652,0.152510
-0.304480,0.155793
-0.300533,0.155828
-0.300585,0.158871
-0.302502,0.158645
-0.304385,0.164055
-0.302093,0.167757
-0.300159,0.169922
-0.297130,0.171892
-0.292359,0.174357
-0.286134,0.175742
-0.282249,0.176520
-0.281260,0.178791
-0.280401,0.180631
-0.278553,0.184742
-0.275323,0.186731
-0.270406,0.187220
-0.265451,0.187133
-0.263235,0.185933
-0.262368,0.187070
-0.263715,0.188501
-0.267010,0.189093
-0.268903,0.187451
-0.272689,0.183631
-0.276734,0.180043
-0.282449,0.176261
-0.286982,0.173551
-0.291999,0.171894
-0.295885,0.168544
-0.300006,0.168418
-0.306113,0.167392
-0.311758,0.164195
-0.318593,0.163325
-0.323619,0.161064
-0.329021,0.160371
-0.335269,0.158796
-0.339970,0.156662
-0.349733,0.151822
-0.358481,0.146621
-0.369079,0.140854
-0.380005,0.133887
-0.389011,0.129746
-0.397880,0.126595
-0.408885,0.124726
-0.418261,0.125774
-0.424532,0.121447
-0.431486,0.117839
-0.438463,0.116664
-0.442800,0.117019
-0.447934,0.116339
-0.451661,0.117593
-0.453647,0.117557
-0.455242,0.115815
-0.458595,0.116690
-0.460012,0.117177
-0.460991,0.122545
-0.461827,0.128605
-0.461286,0.131618
-0.460334,0.131874
-0.460307,0.129785
